#   radius [cm]    height [cm]  dens [g/cm^3]   N [1/cm^3]     T [K]    P [bar]g [cm/s^2]       MMW     nabla
 6.2220566E+008   -2.2363E+003    1.1249E-003  2.4255E+019   317.109 1.062E+000  1030.696    27.930     0.286
 6.2223735E+008    2.9449E+004    1.0882E-003  2.3463E+019   312.920 1.014E+000  1030.591    27.930     0.286
 6.2227914E+008    7.1236E+004    1.0527E-003  2.2697E+019   308.788 9.676E-001  1030.452    27.930     0.286
 6.2232038E+008    1.1248E+005    1.0183E-003  2.1957E+019   304.709 9.237E-001  1030.316    27.930     0.286
 6.2236108E+008    1.5318E+005    9.8508E-004  2.1240E+019   300.685 8.818E-001  1030.181    27.930     0.286
 6.2240125E+008    1.9335E+005    9.5293E-004  2.0547E+019   296.713 8.417E-001  1030.048    27.930     0.286
 6.2244089E+008    2.3299E+005    9.2183E-004  1.9876E+019   292.795 8.035E-001  1029.917    27.930     0.286
 6.2248001E+008    2.7211E+005    8.9174E-004  1.9227E+019   288.927 7.670E-001  1029.788    27.930     0.286
 6.2251863E+008    3.1073E+005    8.6263E-004  1.8600E+019   285.111 7.322E-001  1029.660    27.930     0.286
 6.2255673E+008    3.4883E+005    8.3448E-004  1.7993E+019   281.346 6.989E-001  1029.534    27.930     0.286
 6.2259434E+008    3.8644E+005    8.0724E-004  1.7406E+019   277.630 6.672E-001  1029.409    27.930     0.286
 6.2263146E+008    4.2356E+005    7.8090E-004  1.6837E+019   273.963 6.369E-001  1029.287    27.930     0.286
 6.2266809E+008    4.6019E+005    7.5541E-004  1.6288E+019   270.345 6.079E-001  1029.166    27.930     0.286
 6.2270424E+008    4.9634E+005    7.3076E-004  1.5756E+019   266.774 5.803E-001  1029.046    27.930     0.286
 6.2273992E+008    5.3202E+005    7.0691E-004  1.5242E+019   263.251 5.540E-001  1028.928    27.930     0.286
 6.2277513E+008    5.6723E+005    6.8383E-004  1.4745E+019   259.774 5.288E-001  1028.812    27.930     0.286
 6.2280988E+008    6.0198E+005    6.6151E-004  1.4263E+019   256.343 5.048E-001  1028.697    27.930     0.286
 6.2284417E+008    6.3627E+005    6.3992E-004  1.3798E+019   252.957 4.819E-001  1028.584    27.930     0.286
 6.2287802E+008    6.7012E+005    6.1904E-004  1.3348E+019   249.616 4.600E-001  1028.472    27.930     0.286
 6.2291142E+008    7.0352E+005    5.9883E-004  1.2912E+019   246.319 4.391E-001  1028.362    27.930     0.286
 6.2294438E+008    7.3648E+005    5.7929E-004  1.2490E+019   243.066 4.192E-001  1028.253    27.930     0.286
 6.2297689E+008    7.6899E+005    5.6128E-004  1.2102E+019   239.474 4.001E-001  1028.146    27.930     0.286
 6.2300895E+008    8.0105E+005    5.4287E-004  1.1705E+019   236.349 3.820E-001  1028.040    27.930     0.286
 6.2304067E+008    8.3277E+005    5.2241E-004  1.1264E+019   234.450 3.646E-001  1027.935    27.930     0.286
 6.2307218E+008    8.6428E+005    5.0157E-004  1.0815E+019   233.103 3.481E-001  1027.831    27.930     0.286
 6.2310353E+008    8.9563E+005    4.8085E-004  1.0368E+019   232.106 3.322E-001  1027.728    27.930     0.286
 6.2313477E+008    9.2687E+005    4.6044E-004  9.9278E+018   231.388 3.172E-001  1027.625    27.930     0.286
 6.2316592E+008    9.5802E+005    4.4052E-004  9.4984E+018   230.865 3.028E-001  1027.522    27.930     0.286
 6.2319702E+008    9.8912E+005    4.2122E-004  9.0821E+018   230.481 2.890E-001  1027.420    27.930     0.286
 6.2322808E+008    1.0202E+006    4.0256E-004  8.6798E+018   230.212 2.759E-001  1027.317    27.930     0.286
 6.2325912E+008    1.0512E+006    3.8458E-004  8.2923E+018   230.027 2.634E-001  1027.215    27.930     0.286
 6.2329013E+008    1.0822E+006    3.6740E-004  7.9217E+018   229.852 2.514E-001  1027.113    27.930     0.286
 6.2332111E+008    1.1132E+006    3.5105E-004  7.5693E+018   229.628 2.400E-001  1027.011    27.930     0.286
 6.2335207E+008    1.1442E+006    3.3556E-004  7.2353E+018   229.318 2.291E-001  1026.909    27.930     0.286
 6.2338298E+008    1.1751E+006    3.2090E-004  6.9191E+018   228.907 2.187E-001  1026.807    27.930     0.286
 6.2341382E+008    1.2059E+006    3.0707E-004  6.6209E+018   228.356 2.087E-001  1026.705    27.930     0.286
 6.2344459E+008    1.2367E+006    2.9401E-004  6.3394E+018   227.664 1.993E-001  1026.604    27.930     0.286
 6.2347526E+008    1.2674E+006    2.8170E-004  6.0739E+018   226.823 1.902E-001  1026.503    27.930     0.286
 6.2350580E+008    1.2979E+006    2.7007E-004  5.8231E+018   225.849 1.816E-001  1026.402    27.930     0.286
 6.2353621E+008    1.3283E+006    2.5906E-004  5.5858E+018   224.749 1.733E-001  1026.302    27.930     0.286
 6.2356647E+008    1.3586E+006    2.4864E-004  5.3611E+018   223.537 1.655E-001  1026.203    27.930     0.286
 6.2359655E+008    1.3887E+006    2.3875E-004  5.1478E+018   222.225 1.579E-001  1026.104    27.930     0.286
 6.2362646E+008    1.4186E+006    2.2935E-004  4.9451E+018   220.830 1.508E-001  1026.005    27.930     0.286
 6.2365618E+008    1.4483E+006    2.2040E-004  4.7521E+018   219.360 1.439E-001  1025.908    27.930     0.286
 6.2368570E+008    1.4778E+006    2.1187E-004  4.5684E+018   217.821 1.374E-001  1025.810    27.930     0.286
 6.2371501E+008    1.5071E+006    2.0376E-004  4.3933E+018   216.212 1.311E-001  1025.714    27.930     0.286
 6.2374410E+008    1.5362E+006    1.9602E-004  4.2264E+018   214.543 1.252E-001  1025.618    27.930     0.286
 6.2377296E+008    1.5651E+006    1.8864E-004  4.0673E+018   212.811 1.195E-001  1025.523    27.930     0.286
 6.2380159E+008    1.5937E+006    1.8159E-004  3.9154E+018   211.028 1.141E-001  1025.429    27.930     0.286
 6.2382997E+008    1.6221E+006    1.7485E-004  3.7700E+018   209.214 1.089E-001  1025.336    27.930     0.286
 6.2385812E+008    1.6502E+006    1.6839E-004  3.6308E+018   207.372 1.040E-001  1025.244    27.930     0.286
 6.2388601E+008    1.6781E+006    1.6220E-004  3.4973E+018   205.509 9.923E-002  1025.152    27.930     0.286
 6.2391366E+008    1.7058E+006    1.5621E-004  3.3682E+018   203.698 9.472E-002  1025.061    27.930     0.286
 6.2394107E+008    1.7332E+006    1.5044E-004  3.2437E+018   201.910 9.042E-002  1024.971    27.930     0.286
 6.2396824E+008    1.7603E+006    1.4491E-004  3.1245E+018   200.089 8.632E-002  1024.882    27.930     0.286
 6.2399518E+008    1.7873E+006    1.3940E-004  3.0058E+018   198.549 8.240E-002  1024.793    27.930     0.286
 6.2402192E+008    1.8140E+006    1.3409E-004  2.8913E+018   197.037 7.865E-002  1024.705    27.930     0.286
 6.2404845E+008    1.8405E+006    1.2903E-004  2.7822E+018   195.465 7.508E-002  1024.618    27.930     0.286
 6.2407477E+008    1.8669E+006    1.2420E-004  2.6780E+018   193.847 7.167E-002  1024.532    27.930     0.286
 6.2410087E+008    1.8930E+006    1.1958E-004  2.5784E+018   192.194 6.842E-002  1024.446    27.930     0.286
 6.2412674E+008    1.9188E+006    1.1516E-004  2.4831E+018   190.502 6.531E-002  1024.361    27.930     0.286
 6.2415239E+008    1.9445E+006    1.1092E-004  2.3916E+018   188.814 6.234E-002  1024.277    27.930     0.286
 6.2417785E+008    1.9699E+006    1.0658E-004  2.2981E+018   187.570 5.951E-002  1024.194    27.930     0.286
 6.2420314E+008    1.9952E+006    1.0237E-004  2.2072E+018   186.427 5.681E-002  1024.111    27.930     0.286
 6.2422829E+008    2.0204E+006    9.8264E-005  2.1187E+018   185.388 5.423E-002  1024.028    27.930     0.286
 6.2425331E+008    2.0454E+006    9.4277E-005  2.0328E+018   184.453 5.177E-002  1023.946    27.930     0.286
 6.2427820E+008    2.0703E+006    9.0404E-005  1.9493E+018   183.619 4.942E-002  1023.864    27.930     0.286
 6.2430300E+008    2.0951E+006    8.6646E-005  1.8682E+018   182.882 4.717E-002  1023.783    27.930     0.286
 6.2432770E+008    2.1198E+006    8.3003E-005  1.7897E+018   182.240 4.503E-002  1023.702    27.930     0.286
 6.2435233E+008    2.1444E+006    7.9473E-005  1.7136E+018   181.690 4.298E-002  1023.621    27.930     0.286
 6.2437689E+008    2.1690E+006    7.6056E-005  1.6399E+018   181.230 4.103E-002  1023.541    27.930     0.286
 6.2440139E+008    2.1935E+006    7.2753E-005  1.5687E+018   180.854 3.917E-002  1023.460    27.930     0.286
 6.2442585E+008    2.2179E+006    6.9563E-005  1.4999E+018   180.557 3.739E-002  1023.380    27.930     0.286
 6.2445028E+008    2.2424E+006    6.6484E-005  1.4335E+018   180.340 3.569E-002  1023.300    27.930     0.286
 6.2447468E+008    2.2668E+006    6.3511E-005  1.3694E+018   180.208 3.407E-002  1023.220    27.930     0.286
 6.2449908E+008    2.2912E+006    6.0645E-005  1.3076E+018   180.153 3.252E-002  1023.140    27.930     0.286
 6.2452347E+008    2.3156E+006    5.7887E-005  1.2481E+018   180.165 3.105E-002  1023.060    27.930     0.286
 6.2454787E+008    2.3400E+006    5.5230E-005  1.1909E+018   180.258 2.964E-002  1022.980    27.930     0.286
 6.2457230E+008    2.3644E+006    5.2673E-005  1.1357E+018   180.424 2.829E-002  1022.900    27.930     0.286
 6.2459675E+008    2.3888E+006    5.0217E-005  1.0828E+018   180.653 2.701E-002  1022.820    27.930     0.286
 6.2462124E+008    2.4133E+006    4.7856E-005  1.0318E+018   180.960 2.578E-002  1022.740    27.930     0.286
 6.2464577E+008    2.4379E+006    4.5587E-005  9.8293E+017   181.339 2.461E-002  1022.660    27.930     0.286
 6.2467037E+008    2.4625E+006    4.3412E-005  9.3604E+017   181.775 2.349E-002  1022.579    27.930     0.286
 6.2469503E+008    2.4871E+006    4.1329E-005  8.9112E+017   182.266 2.242E-002  1022.498    27.930     0.286
 6.2471976E+008    2.5119E+006    3.9338E-005  8.4819E+017   182.795 2.141E-002  1022.417    27.930     0.286
 6.2474456E+008    2.5367E+006    3.7438E-005  8.0723E+017   183.348 2.043E-002  1022.336    27.930     0.286
 6.2476945E+008    2.5615E+006    3.5626E-005  7.6817E+017   183.921 1.951E-002  1022.255    27.930     0.286
 6.2479441E+008    2.5865E+006    3.3893E-005  7.3079E+017   184.547 1.862E-002  1022.173    27.930     0.286
 6.2481947E+008    2.6116E+006    3.2240E-005  6.9515E+017   185.199 1.777E-002  1022.091    27.930     0.286
 6.2484462E+008    2.6367E+006    3.0668E-005  6.6125E+017   185.851 1.697E-002  1022.009    27.930     0.286
 6.2486986E+008    2.6620E+006    2.9164E-005  6.2883E+017   186.558 1.620E-002  1021.926    27.930     0.286
 6.2489520E+008    2.6873E+006    2.7732E-005  5.9795E+017   187.283 1.546E-002  1021.843    27.930     0.286
 6.2492063E+008    2.7127E+006    2.6372E-005  5.6863E+017   187.994 1.476E-002  1021.760    27.930     0.286
 6.2494617E+008    2.7383E+006    2.5074E-005  5.4063E+017   188.750 1.409E-002  1021.677    27.930     0.286
 6.2497182E+008    2.7639E+006    2.3834E-005  5.1390E+017   189.552 1.345E-002  1021.593    27.930     0.286
 6.2499758E+008    2.7897E+006    2.2659E-005  4.8856E+017   190.329 1.284E-002  1021.509    27.930     0.286
 6.2502345E+008    2.8155E+006    2.1540E-005  4.6444E+017   191.120 1.226E-002  1021.424    27.930     0.286
 6.2504942E+008    2.8415E+006    2.0471E-005  4.4140E+017   191.965 1.170E-002  1021.339    27.930     0.286
 6.2507552E+008    2.8676E+006    1.9459E-005  4.1956E+017   192.782 1.117E-002  1021.254    27.930     0.286
 6.2510172E+008    2.8938E+006    1.8496E-005  3.9880E+017   193.609 1.066E-002  1021.168    27.930     0.286
 6.2512805E+008    2.9201E+006    1.7577E-005  3.7899E+017   194.477 1.018E-002  1021.082    27.930     0.286
 6.2515449E+008    2.9466E+006    1.6710E-005  3.6029E+017   195.282 9.714E-003  1020.996    27.930     0.286
 6.2518104E+008    2.9731E+006    1.5891E-005  3.4263E+017   196.019 9.273E-003  1020.909    27.930     0.286
 6.2520769E+008    2.9998E+006    1.5110E-005  3.2580E+017   196.784 8.852E-003  1020.822    27.930     0.286
 6.2523445E+008    3.0265E+006    1.4365E-005  3.0974E+017   197.590 8.450E-003  1020.735    27.930     0.286
 6.2526132E+008    3.0534E+006    1.3657E-005  2.9447E+017   198.395 8.066E-003  1020.647    27.930     0.286
 6.2528830E+008    3.0804E+006    1.2987E-005  2.8001E+017   199.162 7.700E-003  1020.559    27.930     0.286
 6.2531538E+008    3.1075E+006    1.2352E-005  2.6632E+017   199.889 7.350E-003  1020.471    27.930     0.286
 6.2534257E+008    3.1347E+006    1.1746E-005  2.5326E+017   200.656 7.016E-003  1020.382    27.930     0.286
 6.2536987E+008    3.1620E+006    1.1168E-005  2.4079E+017   201.459 6.698E-003  1020.293    27.930     0.286
 6.2539728E+008    3.1894E+006    1.0621E-005  2.2900E+017   202.215 6.393E-003  1020.203    27.930     0.286
 6.2542478E+008    3.2169E+006    1.0102E-005  2.1783E+017   202.932 6.103E-003  1020.114    27.930     0.286
 6.2545239E+008    3.2445E+006    9.6076E-006  2.0716E+017   203.694 5.826E-003  1020.024    27.930     0.286
 6.2548011E+008    3.2722E+006    9.1349E-006  1.9696E+017   204.504 5.561E-003  1019.933    27.930     0.286
 6.2550795E+008    3.3000E+006    8.6857E-006  1.8728E+017   205.312 5.309E-003  1019.842    27.930     0.286
 6.2553589E+008    3.3280E+006    8.2606E-006  1.7811E+017   206.074 5.068E-003  1019.751    27.930     0.286
 6.2556393E+008    3.3560E+006    7.8583E-006  1.6944E+017   206.787 4.837E-003  1019.660    27.930     0.286
 6.2559207E+008    3.3842E+006    7.4757E-006  1.6119E+017   207.498 4.618E-003  1019.568    27.930     0.286
 6.2562031E+008    3.4124E+006    7.1135E-006  1.5338E+017   208.161 4.408E-003  1019.476    27.930     0.286
 6.2564864E+008    3.4407E+006    6.7712E-006  1.4600E+017   208.752 4.208E-003  1019.384    27.930     0.286
 6.2567705E+008    3.4691E+006    6.4461E-006  1.3899E+017   209.321 4.017E-003  1019.291    27.930     0.286
 6.2570554E+008    3.4976E+006    6.1369E-006  1.3232E+017   209.883 3.834E-003  1019.198    27.930     0.286
 6.2573410E+008    3.5262E+006    5.8420E-006  1.2596E+017   210.463 3.660E-003  1019.105    27.930     0.286
 6.2576275E+008    3.5549E+006    5.5617E-006  1.1992E+017   211.033 3.494E-003  1019.012    27.930     0.286
 6.2579148E+008    3.5836E+006    5.2958E-006  1.1419E+017   211.563 3.335E-003  1018.918    27.930     0.286
 6.2582028E+008    3.6124E+006    5.0431E-006  1.0874E+017   212.076 3.184E-003  1018.825    27.930     0.286
 6.2584915E+008    3.6412E+006    4.8028E-006  1.0356E+017   212.574 3.039E-003  1018.731    27.930     0.286
 6.2587809E+008    3.6702E+006    4.5743E-006  9.8630E+016   213.054 2.901E-003  1018.637    27.930     0.286
 6.2590709E+008    3.6992E+006    4.3575E-006  9.3955E+016   213.497 2.769E-003  1018.542    27.930     0.286
 6.2593616E+008    3.7283E+006    4.1513E-006  8.9508E+016   213.926 2.644E-003  1018.448    27.930     0.286
 6.2596529E+008    3.7574E+006    3.9547E-006  8.5269E+016   214.363 2.524E-003  1018.353    27.930     0.286
 6.2599448E+008    3.7866E+006    3.7677E-006  8.1237E+016   214.785 2.409E-003  1018.258    27.930     0.286
 6.2602373E+008    3.8158E+006    3.5900E-006  7.7406E+016   215.178 2.300E-003  1018.163    27.930     0.286
 6.2605303E+008    3.8451E+006    3.4216E-006  7.3776E+016   215.514 2.195E-003  1018.067    27.930     0.286
 6.2608238E+008    3.8745E+006    3.2619E-006  7.0333E+016   215.796 2.095E-003  1017.972    27.930     0.286
 6.2611176E+008    3.9039E+006    3.1102E-006  6.7062E+016   216.044 2.000E-003  1017.876    27.930     0.286
 6.2614118E+008    3.9333E+006    2.9663E-006  6.3959E+016   216.239 1.909E-003  1017.781    27.930     0.286
 6.2617062E+008    3.9627E+006    2.8297E-006  6.1013E+016   216.383 1.823E-003  1017.685    27.930     0.286
 6.2620009E+008    3.9922E+006    2.6997E-006  5.8211E+016   216.499 1.740E-003  1017.589    27.930     0.286
 6.2622957E+008    4.0217E+006    2.5760E-006  5.5544E+016   216.592 1.661E-003  1017.493    27.930     0.286
 6.2625906E+008    4.0512E+006    2.4582E-006  5.3003E+016   216.665 1.586E-003  1017.398    27.930     0.286
 6.2628857E+008    4.0807E+006    2.3460E-006  5.0584E+016   216.719 1.514E-003  1017.302    27.930     0.286
 6.2631808E+008    4.1102E+006    2.2391E-006  4.8279E+016   216.754 1.445E-003  1017.206    27.930     0.286
 6.2634760E+008    4.1397E+006    2.1372E-006  4.6082E+016   216.771 1.379E-003  1017.110    27.930     0.286
 6.2637713E+008    4.1692E+006    2.0402E-006  4.3990E+016   216.770 1.317E-003  1017.014    27.930     0.286
 6.2640666E+008    4.1988E+006    1.9477E-006  4.1996E+016   216.749 1.257E-003  1016.918    27.930     0.286
 6.2643618E+008    4.2283E+006    1.8596E-006  4.0096E+016   216.708 1.200E-003  1016.822    27.930     0.286
 6.2646570E+008    4.2578E+006    1.7757E-006  3.8286E+016   216.646 1.145E-003  1016.726    27.930     0.286
 6.2649522E+008    4.2873E+006    1.6957E-006  3.6562E+016   216.561 1.093E-003  1016.631    27.930     0.286
 6.2652472E+008    4.3168E+006    1.6195E-006  3.4920E+016   216.448 1.044E-003  1016.535    27.930     0.286
 6.2655421E+008    4.3463E+006    1.5470E-006  3.3357E+016   216.301 9.961E-004  1016.439    27.930     0.286
 6.2658367E+008    4.3758E+006    1.4781E-006  3.1870E+016   216.106 9.509E-004  1016.344    27.930     0.286
 6.2661311E+008    4.4052E+006    1.4125E-006  3.0456E+016   215.872 9.077E-004  1016.248    27.930     0.286
 6.2664252E+008    4.4346E+006    1.3499E-006  2.9107E+016   215.619 8.665E-004  1016.153    27.930     0.286
 6.2667190E+008    4.4640E+006    1.2903E-006  2.7820E+016   215.347 8.271E-004  1016.058    27.930     0.286
 6.2670124E+008    4.4933E+006    1.2334E-006  2.6594E+016   215.049 7.896E-004  1015.962    27.930     0.286
 6.2673055E+008    4.5226E+006    1.1792E-006  2.5424E+016   214.723 7.537E-004  1015.867    27.930     0.286
 6.2675980E+008    4.5519E+006    1.1274E-006  2.4309E+016   214.377 7.195E-004  1015.773    27.930     0.286
 6.2678902E+008    4.5811E+006    1.0780E-006  2.3244E+016   214.013 6.868E-004  1015.678    27.930     0.286
 6.2681818E+008    4.6103E+006    1.0309E-006  2.2229E+016   213.630 6.556E-004  1015.583    27.930     0.286
 6.2684729E+008    4.6394E+006    9.8597E-007  2.1259E+016   213.228 6.259E-004  1015.489    27.930     0.286
 6.2687636E+008    4.6685E+006    9.4305E-007  2.0334E+016   212.807 5.974E-004  1015.395    27.930     0.286
 6.2690536E+008    4.6975E+006    9.0209E-007  1.9450E+016   212.368 5.703E-004  1015.301    27.930     0.286
 6.2693431E+008    4.7264E+006    8.6297E-007  1.8607E+016   211.911 5.444E-004  1015.207    27.930     0.286
 6.2696319E+008    4.7553E+006    8.2563E-007  1.7802E+016   211.438 5.197E-004  1015.114    27.930     0.286
 6.2699201E+008    4.7841E+006    7.8997E-007  1.7033E+016   210.947 4.961E-004  1015.020    27.930     0.286
 6.2702077E+008    4.8129E+006    7.5592E-007  1.6299E+016   210.438 4.735E-004  1014.927    27.930     0.286
 6.2704946E+008    4.8416E+006    7.2341E-007  1.5598E+016   209.907 4.520E-004  1014.834    27.930     0.286
 6.2707807E+008    4.8702E+006    6.9238E-007  1.4929E+016   209.356 4.315E-004  1014.742    27.930     0.286
 6.2710662E+008    4.8987E+006    6.6273E-007  1.4290E+016   208.787 4.119E-004  1014.649    27.930     0.286
 6.2713508E+008    4.9272E+006    6.3441E-007  1.3679E+016   208.201 3.932E-004  1014.557    27.930     0.286
 6.2716347E+008    4.9556E+006    6.0734E-007  1.3095E+016   207.607 3.754E-004  1014.465    27.930     0.286
 6.2719178E+008    4.9839E+006    5.8146E-007  1.2537E+016   206.999 3.583E-004  1014.374    27.930     0.286
 6.2722001E+008    5.0121E+006    5.5673E-007  1.2004E+016   206.374 3.420E-004  1014.282    27.930     0.286
 6.2724815E+008    5.0403E+006    5.3309E-007  1.1494E+016   205.737 3.265E-004  1014.191    27.930     0.286
 6.2727621E+008    5.0683E+006    5.1049E-007  1.1007E+016   205.088 3.117E-004  1014.101    27.930     0.286
 6.2730418E+008    5.0963E+006    4.8886E-007  1.0541E+016   204.436 2.975E-004  1014.010    27.930     0.286
 6.2733207E+008    5.1242E+006    4.6818E-007  1.0095E+016   203.772 2.840E-004  1013.920    27.930     0.286
 6.2735986E+008    5.1520E+006    4.4843E-007  9.6688E+015   203.089 2.711E-004  1013.830    27.930     0.286
 6.2738757E+008    5.1797E+006    4.2950E-007  9.2608E+015   202.406 2.588E-004  1013.741    27.930     0.286
