#   radius [cm]    height [cm]  dens [g/cm^3]   N [1/cm^3]     T [K]    P [bar]g [cm/s^2]       MMW
 6.9634801E+008    3.4454E+004    1.2019E-002  1.6566E+020   437.223 1.000E+001  1123.321    43.692
 6.9645146E+008    1.3790E+005    9.9682E-003  1.3739E+020   437.663 8.302E+000  1122.988    43.692
 6.9658947E+008    2.7591E+005    8.2780E-003  1.1410E+020   437.548 6.893E+000  1122.544    43.692
 6.9672748E+008    4.1392E+005    6.8758E-003  9.4770E+019   437.340 5.722E+000  1122.101    43.692
 6.9686549E+008    5.5193E+005    5.7103E-003  7.8706E+019   437.194 4.751E+000  1121.657    43.692
 6.9700352E+008    6.8996E+005    4.7411E-003  6.5347E+019   437.170 3.944E+000  1121.213    43.692
 6.9714164E+008    8.2808E+005    3.9342E-003  5.4226E+019   437.379 3.275E+000  1120.769    43.692
 6.9727994E+008    9.6638E+005    3.2621E-003  4.4962E+019   437.944 2.719E+000  1120.325    43.692
 6.9741851E+008    1.1049E+006    2.7034E-003  3.7261E+019   438.724 2.257E+000  1119.880    43.692
 6.9755738E+008    1.2438E+006    2.2403E-003  3.0878E+019   439.533 1.874E+000  1119.435    43.692
 6.9769654E+008    1.3830E+006    1.8570E-003  2.5595E+019   440.233 1.556E+000  1118.989    43.692
 6.9783592E+008    1.5224E+006    1.5408E-003  2.1237E+019   440.496 1.292E+000  1118.542    43.692
 6.9797529E+008    1.6617E+006    1.2810E-003  1.7656E+019   439.861 1.072E+000  1118.095    43.692
 6.9811429E+008    1.8007E+006    1.0685E-003  1.4727E+019   437.822 8.902E-001  1117.650    43.692
 6.9825241E+008    1.9389E+006    8.9488E-004  1.2334E+019   433.996 7.391E-001  1117.208    43.692
 6.9838908E+008    2.0755E+006    7.5295E-004  1.0378E+019   428.229 6.136E-001  1116.771    43.692
 6.9852369E+008    2.2101E+006    6.3621E-004  8.7690E+018   420.763 5.094E-001  1116.341    43.692
 6.9865582E+008    2.3423E+006    5.3917E-004  7.4315E+018   412.196 4.229E-001  1115.919    43.692
 6.9878519E+008    2.4716E+006    4.5769E-004  6.3084E+018   403.134 3.511E-001  1115.505    43.692
 6.9891171E+008    2.5981E+006    3.8892E-004  5.3605E+018   393.873 2.915E-001  1115.102    43.692
 6.9903535E+008    2.7218E+006    3.3057E-004  4.5563E+018   384.714 2.420E-001  1114.707    43.692
 6.9915618E+008    2.8426E+006    2.8083E-004  3.8707E+018   375.974 2.009E-001  1114.322    43.692
 6.9927437E+008    2.9608E+006    2.3834E-004  3.2851E+018   367.780 1.668E-001  1113.945    43.692
 6.9939009E+008    3.0765E+006    2.0201E-004  2.7844E+018   360.249 1.385E-001  1113.577    43.692
 6.9950359E+008    3.1900E+006    1.7090E-004  2.3555E+018   353.542 1.150E-001  1113.216    43.692
 6.9961513E+008    3.3016E+006    1.4427E-004  1.9885E+018   347.692 9.545E-002  1112.861    43.692
 6.9972496E+008    3.4114E+006    1.2156E-004  1.6755E+018   342.573 7.925E-002  1112.511    43.692
 6.9983329E+008    3.5197E+006    1.0227E-004  1.4096E+018   338.063 6.579E-002  1112.167    43.692
 6.9994031E+008    3.6267E+006    8.5913E-005  1.1842E+018   334.104 5.462E-002  1111.827    43.692
 7.0004617E+008    3.7326E+006    7.2083E-005  9.9353E+017   330.598 4.535E-002  1111.491    43.692
 7.0015099E+008    3.8374E+006    6.0433E-005  8.3296E+017   327.377 3.765E-002  1111.158    43.692
 7.0025483E+008    3.9413E+006    5.0652E-005  6.9815E+017   324.277 3.126E-002  1110.828    43.692
 7.0035773E+008    4.0442E+006    4.2453E-005  5.8514E+017   321.219 2.595E-002  1110.502    43.692
 7.0045967E+008    4.1461E+006    3.5588E-005  4.9051E+017   318.127 2.154E-002  1110.179    43.692
 7.0056063E+008    4.2471E+006    2.9847E-005  4.1138E+017   314.918 1.789E-002  1109.859    43.692
 7.0066059E+008    4.3470E+006    2.5041E-005  3.4515E+017   311.621 1.485E-002  1109.542    43.692
 7.0075954E+008    4.4460E+006    2.1008E-005  2.8956E+017   308.380 1.233E-002  1109.229    43.692
 7.0085750E+008    4.5439E+006    1.7615E-005  2.4279E+017   305.348 1.024E-002  1108.919    43.692
 7.0095457E+008    4.6410E+006    1.4759E-005  2.0343E+017   302.545 8.498E-003  1108.612    43.692
 7.0105078E+008    4.7372E+006    1.2364E-005  1.7042E+017   299.842 7.055E-003  1108.307    43.692
 7.0114614E+008    4.8326E+006    1.0361E-005  1.4281E+017   297.052 5.857E-003  1108.006    43.692
 7.0124060E+008    4.9270E+006    8.6900E-006  1.1978E+017   294.046 4.863E-003  1107.707    43.692
 7.0133410E+008    5.0205E+006    7.2934E-006  1.0053E+017   290.866 4.037E-003  1107.412    43.692
 7.0142660E+008    5.1130E+006    6.1228E-006  8.4392E+016   287.653 3.352E-003  1107.120    43.692
 7.0151811E+008    5.2046E+006    5.1386E-006  7.0827E+016   284.554 2.783E-003  1106.831    43.692
 7.0160870E+008    5.2951E+006    4.3090E-006  5.9392E+016   281.725 2.310E-003  1106.545    43.692
 7.0169846E+008    5.3849E+006    3.6095E-006  4.9751E+016   279.219 1.918E-003  1106.262    43.692
 7.0178750E+008    5.4739E+006    3.0199E-006  4.1624E+016   277.075 1.592E-003  1105.982    43.692
 7.0187597E+008    5.5624E+006    2.5216E-006  3.4756E+016   275.485 1.322E-003  1105.703    43.692
 7.0196406E+008    5.6505E+006    2.1001E-006  2.8947E+016   274.613 1.097E-003  1105.425    43.692
 7.0205201E+008    5.7384E+006    1.7445E-006  2.4045E+016   274.461 9.112E-004  1105.148    43.692
 7.0214004E+008    5.8265E+006    1.4455E-006  1.9923E+016   275.005 7.565E-004  1104.871    43.692
 7.0222838E+008    5.9148E+006    1.1946E-006  1.6466E+016   276.260 6.280E-004  1104.593    43.692
 7.0231725E+008    6.0037E+006    9.8522E-007  1.3579E+016   278.103 5.214E-004  1104.314    43.692
 7.0240677E+008    6.0932E+006    8.1163E-007  1.1187E+016   280.265 4.329E-004  1104.032    43.692
 7.0249704E+008    6.1835E+006    6.6838E-007  9.2125E+015   282.550 3.594E-004  1103.749    43.692
 7.0258807E+008    6.2745E+006    5.5028E-007  7.5846E+015   284.926 2.984E-004  1103.463    43.692
 7.0267990E+008    6.3663E+006    4.5302E-007  6.2441E+015   287.332 2.477E-004  1103.174    43.692
 7.0277250E+008    6.4589E+006    3.7319E-007  5.1437E+015   289.582 2.057E-004  1102.884    43.692
 7.0286580E+008    6.5522E+006    3.0769E-007  4.2410E+015   291.589 1.707E-004  1102.591    43.692
 7.0295975E+008    6.6462E+006    2.5387E-007  3.4991E+015   293.407 1.417E-004  1102.296    43.692
 7.0305427E+008    6.7407E+006    2.0960E-007  2.8890E+015   295.040 1.177E-004  1102.000    43.692
 7.0314930E+008    6.8357E+006    1.7323E-007  2.3877E+015   296.367 9.770E-005  1101.702    43.692
 7.0324471E+008    6.9311E+006    1.4337E-007  1.9761E+015   297.300 8.111E-005  1101.403    43.692
 7.0334039E+008    7.0268E+006    1.1879E-007  1.6374E+015   297.890 6.734E-005  1101.103    43.692
 7.0343625E+008    7.1227E+006    9.8513E-008  1.3578E+015   298.228 5.591E-005  1100.803    43.692
 7.0353223E+008    7.2187E+006    8.1734E-008  1.1266E+015   298.420 4.642E-005  1100.503    43.692
 7.0362829E+008    7.3147E+006    6.7811E-008  9.3465E+014   298.626 3.854E-005  1100.202    43.692
 7.0372446E+008    7.4109E+006    5.6237E-008  7.7513E+014   298.946 3.199E-005  1099.902    43.692
 7.0382078E+008    7.5072E+006    4.6621E-008  6.4258E+014   299.385 2.656E-005  1099.601    43.692
 7.0391728E+008    7.6037E+006    3.8641E-008  5.3260E+014   299.881 2.205E-005  1099.299    43.692
 7.0401396E+008    7.7004E+006    3.2032E-008  4.4150E+014   300.338 1.831E-005  1098.997    43.692
 7.0411081E+008    7.7972E+006    2.6553E-008  3.6599E+014   300.794 1.520E-005  1098.695    43.692
 7.0420785E+008    7.8943E+006    2.2005E-008  3.0330E+014   301.336 1.262E-005  1098.392    43.692
 7.0430510E+008    7.9915E+006    1.8231E-008  2.5129E+014   301.961 1.048E-005  1098.089    43.692
 7.0440260E+008    8.0890E+006    1.5101E-008  2.0814E+014   302.660 8.697E-006  1097.785    43.692
 7.0450035E+008    8.1868E+006    1.2506E-008  1.7237E+014   303.413 7.221E-006  1097.480    43.692
 7.0459837E+008    8.2848E+006    1.0358E-008  1.4276E+014   304.145 5.995E-006  1097.175    43.692
 7.0469665E+008    8.3831E+006    8.5808E-009  1.1827E+014   304.795 4.977E-006  1096.869    43.692
 7.0479514E+008    8.4816E+006    7.1114E-009  9.8018E+013   305.333 4.132E-006  1096.562    43.692
 7.0489381E+008    8.5802E+006    5.8965E-009  8.1273E+013   305.722 3.430E-006  1096.256    43.692
 7.0499260E+008    8.6790E+006    4.8922E-009  6.7430E+013   305.922 2.848E-006  1095.948    43.692
 7.0509145E+008    8.7779E+006    4.0621E-009  5.5988E+013   305.883 2.364E-006  1095.641    43.692
 7.0519027E+008    8.8767E+006    3.3752E-009  4.6522E+013   305.626 1.963E-006  1095.334    43.692
 7.0528902E+008    8.9755E+006    2.8061E-009  3.8677E+013   305.204 1.630E-006  1095.027    43.692
 7.0538763E+008    9.0741E+006    2.3338E-009  3.2167E+013   304.663 1.353E-006  1094.721    43.692
 7.0548609E+008    9.1725E+006    1.9413E-009  2.6757E+013   304.074 1.123E-006  1094.416    43.692
 7.0558439E+008    9.2708E+006    1.6147E-009  2.2256E+013   303.505 9.326E-007  1094.111    43.692
 7.0568255E+008    9.3690E+006    1.3428E-009  1.8508E+013   303.009 7.743E-007  1093.806    43.692
 7.0578059E+008    9.4670E+006    1.1162E-009  1.5385E+013   302.618 6.428E-007  1093.502    43.692
 7.0587855E+008    9.5650E+006    9.2748E-010  1.2784E+013   302.365 5.337E-007  1093.199    43.692
 7.0597648E+008    9.6629E+006    7.7027E-010  1.0617E+013   302.265 4.431E-007  1092.896    43.692
 7.0607443E+008    9.7609E+006    6.3934E-010  8.8121E+012   302.337 3.678E-007  1092.592    43.692
 7.0617249E+008    9.8589E+006    5.3015E-010  7.3072E+012   302.702 3.054E-007  1092.289    43.692
 7.0627077E+008    9.9572E+006    4.3889E-010  6.0494E+012   303.561 2.535E-007  1091.985    43.692
 7.0636946E+008    1.0056E+007    3.6251E-010  4.9966E+012   305.123 2.105E-007  1091.680    43.692
 7.0646883E+008    1.0155E+007    2.9860E-010  4.1157E+012   307.539 1.748E-007  1091.373    43.692
 7.0656915E+008    1.0256E+007    2.4535E-010  3.3817E+012   310.741 1.451E-007  1091.063    43.692
 7.0667051E+008    1.0357E+007    2.0166E-010  2.7795E+012   313.874 1.205E-007  1090.750    43.692
 7.0674712E+008    1.0434E+007    1.6624E-010  2.2913E+012   316.112 1.000E-007  1090.514    43.692
